,Time(sec),Distance(feet),SOC,Elevation(feet),Surplus(Foot-pound)
0,0.0,0.0,0.0,311.5,0.0
1,1.0,44.0,0.0,311.5,0.0
2,2.0,88.0,0.0,311.52672101507363,0.0
3,3.0,132.0,0.0,311.55344203014727,0.0
4,4.0,176.0,0.0,311.5801630452209,0.0
5,5.0,220.0,0.0,311.60688406029453,0.0
6,6.0,264.0,0.0,311.63360507536817,0.0
7,7.0,308.0,0.0,311.6603260904418,0.0
8,8.0,352.0,0.0,311.68704710551543,0.0
9,9.0,396.0,0.0,311.71376812058907,0.0
10,10.0,440.0,0.0,311.7404891356627,0.0
11,11.0,484.0,0.0,311.76721015073633,0.0
12,12.0,528.0,0.0,311.79393116580997,0.0
13,13.0,572.0,0.0,311.8206521808836,0.0
14,14.0,616.0,0.0,311.84737319595723,0.0
15,15.0,660.0,0.0,311.87409421103087,0.0
16,16.0,704.0,0.0,311.9008152261045,0.0
17,17.0,748.0,0.0,311.92753624117813,0.0
18,18.0,792.0,0.0,311.95425725625176,0.0
19,18.7118639999926,823.3220159996745,0.0,312.0,0.0
20,19.7118639999926,867.3220159996745,0.0,312.0,0.0
21,20.7118639999926,911.3220159996745,0.0,312.2821039083804,0.0
22,21.7118639999926,955.3220159996745,0.0,312.5642078167608,0.0
23,22.7118639999926,999.3220159996745,0.0,312.8463117251412,0.0
24,23.7118639999926,1043.3220159996745,0.0,313.1284156335216,0.0
25,24.7118639999926,1087.3220159996745,0.0,313.41051954190203,0.0
26,25.7118639999926,1131.3220159996745,0.0,313.69262345028244,0.0
27,26.7118639999926,1175.3220159996745,0.0,313.97472735866285,0.0
28,27.7118639999926,1219.3220159996745,0.0,314.25683126704325,0.0
29,28.7118639999926,1263.3220159996745,0.0,314.53893517542366,0.0
30,29.7118639999926,1307.3220159996745,0.0,314.82103908380407,0.0
31,30.7118639999926,1351.3220159996745,0.0,315.1031429921845,0.0
32,31.7118639999926,1395.3220159996745,0.0,315.3852469005649,0.0
33,32.7118639999926,1439.3220159996745,0.0,315.6673508089453,0.0
34,33.7118639999926,1483.3220159996745,0.0,315.9494547173257,0.0
35,34.7118639999926,1527.3220159996745,0.0,316.2315586257061,0.0
36,35.7118639999926,1571.3220159996745,0.0,316.5136625340865,0.0
37,36.7118639999926,1615.3220159996745,0.0,316.7957664424669,0.0
38,37.7118639999926,1659.3220159996745,0.0,317.0778703508473,0.0
39,38.7118639999926,1703.3220159996745,0.0,317.3599742592277,0.0
40,39.7118639999926,1747.3220159996745,0.0,317.64207816760813,0.0
41,40.7118639999926,1791.3220159996745,0.0,317.92418207598854,0.0
42,41.7118639999926,1835.3220159996745,0.0,318.20628598436895,0.0
43,42.7118639999926,1879.3220159996745,0.0,318.48838989274935,0.0
44,43.52541599999313,1915.1183039996977,0.0,319.0,0.0
45,44.52541599999313,1959.1183039996977,0.0,319.0,0.0
46,45.52541599999313,2003.1183039996977,0.0,318.8553921602653,0.0
47,46.52541599999313,2047.1183039996977,0.0,318.7107843205306,0.0
48,47.52541599999313,2091.1183039996977,0.0,318.5661764807959,0.0
49,48.52541599999313,2135.1183039996977,0.0,318.4215686410612,0.0
50,49.52541599999313,2179.1183039996977,0.0,318.2769608013265,0.0
51,50.52541599999313,2223.1183039996977,0.0,318.1323529615918,0.0
52,51.52541599999313,2267.1183039996977,0.0,317.9877451218571,0.0
53,52.52541599999313,2311.1183039996977,0.0,317.84313728212237,0.0
54,53.52541599999313,2355.1183039996977,0.0,317.69852944238767,0.0
55,54.52541599999313,2399.1183039996977,0.0,317.55392160265296,0.0
56,55.52541599999313,2443.1183039996977,0.0,317.40931376291826,0.0
57,56.52541599999313,2487.1183039996977,0.0,317.26470592318356,0.0
58,57.52541599999313,2531.1183039996977,0.0,317.12009808344885,0.0
59,58.52541599999313,2575.1183039996977,0.0,316.97549024371415,0.0
60,59.52541599999313,2619.1183039996977,0.0,316.83088240397944,0.0
61,60.52541599999313,2663.1183039996977,0.0,316.68627456424474,0.0
62,61.52541599999313,2707.1183039996977,0.0,316.54166672451004,0.0
63,62.52541599999313,2751.1183039996977,0.0,316.39705888477533,0.0
64,63.52541599999313,2795.1183039996977,0.0,316.25245104504063,0.0
65,64.52541599999313,2839.1183039996977,0.0,316.1078432053059,0.0
66,65.52541599999313,2883.1183039996977,0.0,315.9632353655712,0.0
67,66.52541599999313,2927.1183039996977,0.0,315.8186275258365,0.0
68,67.52541599999313,2971.1183039996977,0.0,315.6740196861018,0.0
69,68.52541599999313,3015.1183039996977,0.0,315.5294118463671,0.0
70,69.52541599999313,3059.1183039996977,0.0,315.3848040066324,0.0
71,70.52541599999313,3103.1183039996977,0.0,315.2401961668977,0.0
72,71.52541599999313,3147.1183039996977,0.0,315.095588327163,0.0
73,72.52541599999313,3191.1183039996977,0.0,314.9509804874283,0.0
74,73.52541599999313,3235.1183039996977,0.0,314.8063726476936,0.0
75,74.52541599999313,3279.1183039996977,0.0,314.6617648079589,0.0
76,75.52541599999313,3323.1183039996977,0.0,314.5171569682242,0.0
77,76.52541599999313,3367.1183039996977,0.0,314.3725491284895,0.0
78,77.52541599999313,3411.1183039996977,0.0,314.2279412887548,0.0
79,78.10168799999701,3436.4742719998685,0.0,314.0,0.0
80,79.10168799999701,3480.4742719998685,0.0,314.0,0.0
81,80.10168799999701,3524.4742719998685,0.0,314.2390046263101,0.0
82,81.10168799999701,3568.4742719998685,0.0,314.47800925262015,0.0
83,82.10168799999701,3612.4742719998685,0.0,314.71701387893023,0.0
84,83.10168799999701,3656.4742719998685,0.0,314.9560185052403,0.0
85,84.10168799999701,3700.4742719998685,0.0,315.1950231315504,0.0
86,85.10168799999701,3744.4742719998685,0.0,315.43402775786046,0.0
87,86.10168799999701,3788.4742719998685,0.0,315.67303238417054,0.0
88,87.10168799999701,3832.4742719998685,0.0,315.9120370104806,0.0
89,88.10168799999701,3876.4742719998685,0.0,316.1510416367907,0.0
90,89.10168799999701,3920.4742719998685,0.0,316.39004626310077,0.0
91,90.10168799999701,3964.4742719998685,0.0,316.62905088941085,0.0
92,91.10168799999701,4008.4742719998685,0.0,316.8680555157209,0.0
93,92.10168799999701,4052.4742719998685,0.0,317.107060142031,0.0
94,93.10168799999701,4096.4742719998685,0.0,317.3460647683411,0.0
95,94.10168799999701,4140.4742719998685,0.0,317.58506939465116,0.0
96,95.10168799999701,4184.4742719998685,0.0,317.82407402096123,0.0
97,96.10168799999701,4228.4742719998685,0.0,318.0630786472713,0.0
98,97.10168799999701,4272.4742719998685,0.0,318.3020832735814,0.0
99,98.10168799999701,4316.4742719998685,0.0,318.54108789989147,0.0
100,99.10168799999701,4360.4742719998685,0.0,318.78009252620154,0.0
101,100.10168799999701,4404.4742719998685,0.0,319.0190971525116,0.0
102,101.10168799999701,4448.4742719998685,0.0,319.2581017788217,0.0
103,102.10168799999701,4492.4742719998685,0.0,319.4971064051318,0.0
104,103.10168799999701,4536.4742719998685,0.0,319.73611103144185,0.0
105,104.10168799999701,4580.4742719998685,0.0,319.9751156577519,0.0
106,105.10168799999701,4624.4742719998685,0.0,320.214120284062,0.0
107,106.10168799999701,4668.4742719998685,0.0,320.4531249103721,0.0
108,107.10168799999701,4712.4742719998685,0.0,320.69212953668216,0.0
109,107.38982400000168,4725.152256000074,0.0,321.0,0.0
110,108.38982400000168,4769.152256000074,0.0,321.0,0.0
111,109.38982400000168,4813.152256000074,0.0,320.44073089760457,0.0
112,110.38982400000168,4857.152256000074,0.0,319.88146179520913,0.0
113,111.38982400000168,4901.152256000074,0.0,319.3221926928137,0.0
114,112.38982400000168,4945.152256000074,0.0,318.76292359041827,0.0
115,113.38982400000168,4989.152256000074,0.0,318.20365448802283,0.0
116,114.38982400000168,5033.152256000074,0.0,317.6443853856274,0.0
117,115.38982400000168,5077.152256000074,0.0,317.08511628323197,0.0
118,116.38982400000168,5121.152256000074,0.0,316.52584718083654,0.0
119,117.38982400000168,5165.152256000074,0.0,315.9665780784411,0.0
120,118.38982400000168,5209.152256000074,0.0,315.40730897604567,0.0
121,119.38982400000168,5253.152256000074,0.0,314.84803987365024,0.0
122,120.38982400000168,5297.152256000074,0.0,314.2887707712548,0.0
123,121.38982400000168,5341.152256000074,0.0,313.72950166885937,0.0
124,122.38982400000168,5385.152256000074,0.0,313.17023256646394,0.0
125,123.38982400000168,5429.152256000074,0.0,312.6109634640685,0.0
126,123.48225600000205,5433.21926400009,0.0,312.0,0.0
127,124.48225600000205,5477.21926400009,0.0,312.0,0.0
128,125.48225600000205,5521.21926400009,0.0,312.0,0.0
129,126.48225600000205,5565.21926400009,0.0,312.0,0.0
130,127.48225600000205,5609.21926400009,0.0,312.0,0.0
131,128.48225600000205,5653.21926400009,0.0,312.0,0.0
132,129.48225600000205,5697.21926400009,0.0,312.0,0.0
133,130.48225600000205,5741.21926400009,0.0,312.0,0.0
134,131.48225600000205,5785.21926400009,0.0,312.0,0.0
135,132.48225600000205,5829.21926400009,0.0,312.0,0.0
136,133.48225600000205,5873.21926400009,0.0,312.0,0.0
137,134.48225600000205,5917.21926400009,0.0,312.0,0.0
138,135.48225600000205,5961.21926400009,0.0,312.0,0.0
139,135.52377599999545,5963.0461439998,0.0,312.0,0.0
140,136.52377599999545,6007.0461439998,0.0,312.0,0.0
141,137.52377599999545,6051.0461439998,0.0,312.40138880526627,0.0
142,138.52377599999545,6095.0461439998,0.0,312.80277761053253,0.0
143,139.52377599999545,6139.0461439998,0.0,313.2041664157988,0.0
144,140.52377599999545,6183.0461439998,0.0,313.60555522106506,0.0
145,141.52377599999545,6227.0461439998,0.0,314.0069440263313,0.0
146,142.52377599999545,6271.0461439998,0.0,314.4083328315976,0.0
147,143.52377599999545,6315.0461439998,0.0,314.80972163686386,0.0
148,144.52377599999545,6359.0461439998,0.0,315.2111104421301,0.0
149,145.52377599999545,6403.0461439998,0.0,315.6124992473964,0.0
150,146.52377599999545,6447.0461439998,0.0,316.01388805266265,0.0
151,147.52377599999545,6491.0461439998,0.0,316.4152768579289,0.0
152,148.52377599999545,6535.0461439998,0.0,316.8166656631952,0.0
153,149.52377599999545,6579.0461439998,0.0,317.21805446846145,0.0
154,150.52377599999545,6623.0461439998,0.0,317.6194432737277,0.0
155,151.52377599999545,6667.0461439998,0.0,318.020832078994,0.0
156,152.52377599999545,6711.0461439998,0.0,318.42222088426024,0.0
157,153.52377599999545,6755.0461439998,0.0,318.8236096895265,0.0
158,154.52377599999545,6799.0461439998,0.0,319.22499849479277,0.0
159,155.52377599999545,6843.0461439998,0.0,319.62638730005904,0.0
160,156.52377599999545,6887.0461439998,0.0,320.0277761053253,0.0
161,157.52377599999545,6931.0461439998,0.0,320.42916491059157,0.0
162,158.52377599999545,6975.0461439998,0.0,320.83055371585783,0.0
163,159.52377599999545,7019.0461439998,0.0,321.2319425211241,0.0
164,160.4372759999933,7059.240143999705,0.0,322.0,0.0
165,161.4372759999933,7103.240143999705,0.0,322.0,0.0
166,162.4372759999933,7147.240143999705,0.0,321.8129449921727,0.0
167,163.4372759999933,7191.240143999705,0.0,321.62588998434535,0.0
168,164.4372759999933,7235.240143999705,0.0,321.438834976518,0.0
169,165.4372759999933,7279.240143999705,0.0,321.2517799686907,0.0
170,166.4372759999933,7323.240143999705,0.0,321.0647249608634,0.0
171,167.4372759999933,7367.240143999705,0.0,320.87766995303605,0.0
172,168.4372759999933,7411.240143999705,0.0,320.6906149452087,0.0
173,169.4372759999933,7455.240143999705,0.0,320.5035599373814,0.0
174,170.4372759999933,7499.240143999705,0.0,320.31650492955407,0.0
175,171.4372759999933,7543.240143999705,0.0,320.12944992172675,0.0
176,172.4372759999933,7587.240143999705,0.0,319.9423949138994,0.0
177,173.4372759999933,7631.240143999705,0.0,319.7553399060721,0.0
178,174.4372759999933,7675.240143999705,0.0,319.56828489824477,0.0
179,175.4372759999933,7719.240143999705,0.0,319.38122989041744,0.0
180,176.4372759999933,7763.240143999705,0.0,319.1941748825901,0.0
181,177.4372759999933,7807.240143999705,0.0,319.0071198747628,0.0
182,178.4372759999933,7851.240143999705,0.0,318.82006486693547,0.0
183,179.4372759999933,7895.240143999705,0.0,318.63300985910814,0.0
184,180.4372759999933,7939.240143999705,0.0,318.4459548512808,0.0
185,181.4372759999933,7983.240143999705,0.0,318.2588998434535,0.0
186,182.4372759999933,8027.240143999705,0.0,318.07184483562617,0.0
187,183.4372759999933,8071.240143999705,0.0,317.88478982779884,0.0
188,184.4372759999933,8115.240143999705,0.0,317.6977348199715,0.0
189,185.4372759999933,8159.240143999705,0.0,317.5106798121442,0.0
190,186.4372759999933,8203.240143999705,0.0,317.32362480431686,0.0
191,187.4372759999933,8247.240143999705,0.0,317.13656979648954,0.0
192,188.4372759999933,8291.240143999705,0.0,316.9495147886622,0.0
193,189.4372759999933,8335.240143999705,0.0,316.7624597808349,0.0
194,190.4372759999933,8379.240143999705,0.0,316.57540477300756,0.0
195,191.4372759999933,8423.240143999705,0.0,316.38834976518024,0.0
196,192.4372759999933,8467.240143999705,0.0,316.2012947573529,0.0
197,193.4372759999933,8511.240143999705,0.0,316.0142397495256,0.0
198,194.4372759999933,8555.240143999705,0.0,315.82718474169826,0.0
199,195.4372759999933,8599.240143999705,0.0,315.64012973387094,0.0
200,196.4372759999933,8643.240143999705,0.0,315.4530747260436,0.0
201,197.4372759999933,8687.240143999705,0.0,315.2660197182163,0.0
202,198.4372759999933,8731.240143999705,0.0,315.07896471038896,0.0
203,199.4372759999933,8775.240143999705,0.0,314.89190970256163,0.0
204,200.4372759999933,8819.240143999705,0.0,314.7048546947343,0.0
205,201.4372759999933,8863.240143999705,0.0,314.517799686907,0.0
206,202.4372759999933,8907.240143999705,0.0,314.33074467907966,0.0
207,203.20544399999108,8941.039535999607,0.0,314.0,0.0
208,204.20544399999108,8985.039535999607,0.0,314.0,0.0
209,205.20544399999108,9029.039535999607,0.0,314.0,0.0
210,206.20544399999108,9073.039535999607,0.0,314.0,0.0
211,207.20544399999108,9117.039535999607,0.0,314.0,0.0
212,208.20544399999108,9161.039535999607,0.0,314.0,0.0
213,209.20544399999108,9205.039535999607,0.0,314.0,0.0
214,210.20544399999108,9249.039535999607,0.0,314.0,0.0
215,211.20544399999108,9293.039535999607,0.0,314.0,0.0
216,212.20544399999108,9337.039535999607,0.0,314.0,0.0
217,213.20544399999108,9381.039535999607,0.0,314.0,0.0
218,214.20544399999108,9425.039535999607,0.0,314.0,0.0
219,215.20544399999108,9469.039535999607,0.0,314.0,0.0
220,216.20544399999108,9513.039535999607,0.0,314.0,0.0
221,217.20544399999108,9557.039535999607,0.0,314.0,0.0
222,218.20544399999108,9601.039535999607,0.0,314.0,0.0
223,219.20544399999108,9645.039535999607,0.0,314.0,0.0
224,220.20544399999108,9689.039535999607,0.0,314.0,0.0
225,221.20544399999108,9733.039535999607,0.0,314.0,0.0
226,222.20544399999108,9777.039535999607,0.0,314.0,0.0
227,223.13623200000166,9817.994208000073,0.0,314.0,0.0
228,224.13623200000166,9861.994208000073,0.0,314.0,0.0
229,225.13623200000166,9905.994208000073,0.0,314.2883215263973,0.0
230,226.13623200000166,9949.994208000073,0.0,314.57664305279457,0.0
231,227.13623200000166,9993.994208000073,0.0,314.86496457919185,0.0
232,228.13623200000166,10037.994208000073,0.0,315.15328610558913,0.0
233,229.13623200000166,10081.994208000073,0.0,315.4416076319864,0.0
234,230.13623200000166,10125.994208000073,0.0,315.7299291583837,0.0
235,231.13623200000166,10169.994208000073,0.0,316.018250684781,0.0
236,232.13623200000166,10213.994208000073,0.0,316.30657221117826,0.0
237,233.13623200000166,10257.994208000073,0.0,316.59489373757555,0.0
238,234.13623200000166,10301.994208000073,0.0,316.88321526397283,0.0
239,235.13623200000166,10345.994208000073,0.0,317.1715367903701,0.0
240,236.13623200000166,10389.994208000073,0.0,317.4598583167674,0.0
241,237.13623200000166,10433.994208000073,0.0,317.7481798431647,0.0
242,238.13623200000166,10477.994208000073,0.0,318.03650136956196,0.0
243,239.13623200000166,10521.994208000073,0.0,318.32482289595924,0.0
244,240.13623200000166,10565.994208000073,0.0,318.6131444223565,0.0
245,241.13623200000166,10609.994208000073,0.0,318.9014659487538,0.0
246,242.13623200000166,10653.994208000073,0.0,319.1897874751511,0.0
247,243.13623200000166,10697.994208000073,0.0,319.4781090015484,0.0
248,244.13623200000166,10741.994208000073,0.0,319.76643052794566,0.0
249,245.13623200000166,10785.994208000073,0.0,320.05475205434294,0.0
250,246.13623200000166,10829.994208000073,0.0,320.3430735807402,0.0
251,247.13623200000166,10873.994208000073,0.0,320.6313951071375,0.0
252,248.13623200000166,10917.994208000073,0.0,320.9197166335348,0.0
253,249.13623200000166,10961.994208000073,0.0,321.2080381599321,0.0
254,250.13623200000166,11005.994208000073,0.0,321.49635968632936,0.0
255,251.13623200000166,11049.994208000073,0.0,321.78468121272664,0.0
256,252.13623200000166,11093.994208000073,0.0,322.0730027391239,0.0
257,252.61720799999694,11115.157151999865,0.0,322.5,0.0
258,253.61720799999694,11159.157151999865,0.0,322.5,0.0
259,254.61720799999694,11203.157151999865,0.0,322.455401231925,0.0
260,255.61720799999694,11247.157151999865,0.0,322.41080246385,0.0
261,256.61720799999694,11291.157151999865,0.0,322.366203695775,0.0
262,257.61720799999694,11335.157151999865,0.0,322.32160492770004,0.0
263,258.61720799999694,11379.157151999865,0.0,322.27700615962505,0.0
264,259.61720799999694,11423.157151999865,0.0,322.23240739155005,0.0
265,260.61720799999694,11467.157151999865,0.0,322.18780862347506,0.0
266,261.61720799999694,11511.157151999865,0.0,322.1432098554001,0.0
267,262.61720799999694,11555.157151999865,0.0,322.0986110873251,0.0
268,263.61720799999694,11599.157151999865,0.0,322.0540123192501,0.0
269,263.82828000000245,11608.444320000108,0.0,322.0,0.0
270,264.82828000000245,11652.444320000108,0.0,322.0,0.0
271,265.82828000000245,11696.444320000108,0.0,322.37561165043064,0.0
272,266.82828000000245,11740.444320000108,0.0,322.7512233008613,0.0
273,267.82828000000245,11784.444320000108,0.0,323.1268349512919,0.0
274,268.82828000000245,11828.444320000108,0.0,323.50244660172257,0.0
275,269.82828000000245,11872.444320000108,0.0,323.8780582521532,0.0
276,270.82828000000245,11916.444320000108,0.0,324.25366990258385,0.0
277,271.82828000000245,11960.444320000108,0.0,324.6292815530145,0.0
278,272.82828000000245,12004.444320000108,0.0,325.00489320344514,0.0
279,273.82828000000245,12048.444320000108,0.0,325.3805048538758,0.0
280,274.82828000000245,12092.444320000108,0.0,325.7561165043064,0.0
281,275.82828000000245,12136.444320000108,0.0,326.13172815473706,0.0
282,276.82828000000245,12180.444320000108,0.0,326.5073398051677,0.0
283,277.82828000000245,12224.444320000108,0.0,326.88295145559835,0.0
284,278.82828000000245,12268.444320000108,0.0,327.258563106029,0.0
285,279.82828000000245,12312.444320000108,0.0,327.63417475645963,0.0
286,280.82828000000245,12356.444320000108,0.0,328.00978640689027,0.0
287,281.82828000000245,12400.444320000108,0.0,328.3853980573209,0.0
288,282.82828000000245,12444.444320000108,0.0,328.76100970775155,0.0
289,283.82828000000245,12488.444320000108,0.0,329.1366213581822,0.0
290,284.82828000000245,12532.444320000108,0.0,329.51223300861284,0.0
291,285.82828000000245,12576.444320000108,0.0,329.8878446590435,0.0
292,286.82828000000245,12620.444320000108,0.0,330.2634563094741,0.0
293,287.82828000000245,12664.444320000108,0.0,330.63906795990476,0.0
294,288.82828000000245,12708.444320000108,0.0,331.0146796103354,0.0
295,289.82828000000245,12752.444320000108,0.0,331.39029126076605,0.0
296,290.82828000000245,12796.444320000108,0.0,331.7659029111967,0.0
297,291.82828000000245,12840.444320000108,0.0,332.14151456162733,0.0
298,292.82828000000245,12884.444320000108,0.0,332.517126212058,0.0
299,293.82828000000245,12928.444320000108,0.0,332.8927378624886,0.0
300,294.82828000000245,12972.444320000108,0.0,333.26834951291926,0.0
301,295.82828000000245,13016.444320000108,0.0,333.6439611633499,0.0
302,296.82828000000245,13060.444320000108,0.0,334.01957281378054,0.0
303,297.82828000000245,13104.444320000108,0.0,334.3951844642112,0.0
304,298.82828000000245,13148.444320000108,0.0,334.7707961146418,0.0
305,299.82828000000245,13192.444320000108,0.0,335.14640776507247,0.0
306,300.82828000000245,13236.444320000108,0.0,335.5220194155031,0.0
307,301.82828000000245,13280.444320000108,0.0,335.89763106593375,0.0
308,302.82828000000245,13324.444320000108,0.0,336.2732427163644,0.0
309,303.82828000000245,13368.444320000108,0.0,336.64885436679504,0.0
